Tasa_Simulado,Density
1.0008968910712912,0.6504771479484844
1.0080196757883892,0.6613978270405898
1.0151424605054873,0.6719057111719863
1.022265245222585,0.681979374009896
1.0293880299396831,0.6915985236288302
1.0365108146567812,0.7007440882517934
1.0436335993738792,0.7093982963576023
1.0507563840909773,0.7175447506630611
1.0578791688080753,0.7251684955309672
1.0650019535251731,0.7322560774007382
1.0721247382422712,0.7387955978874039
1.0792475229593692,0.7447767592463505
1.0863703076764673,0.7501909019550455
1.0934930923935653,0.7550310342184808
1.100615877110663,0.7592918532617748
1.1077386618277612,0.76296975833066
1.1148614465448592,0.7660628553780217
1.1219842312619572,0.768570953471619
1.1291070159790553,0.7704955530141482
1.1362298006961533,0.771839825921409
1.1433525854132511,0.7726085879569772
1.1504753701303492,0.7728082634720748
1.1575981548474472,0.7724468428468141
1.1647209395645453,0.7715338329733001
1.1718437242816433,0.7700802011618686
1.1789665089987413,0.7680983128887139
1.1860892937158392,0.7656018638360834
1.1932120784329372,0.7626058067048624
1.2003348631500352,0.7591262733036128
1.2074576478671333,0.7551804924378526
1.2145804325842313,0.7507867041385186
1.2217032173013291,0.7459640707791416
1.2288260020184272,0.7407325856373418
1.2359487867355252,0.7351129794578886
1.2430715714526233,0.7291266255719416
1.2501943561697213,0.722795444120333
1.2573171408868191,0.7161418059181175
1.2644399256039172,0.7091884364833414
1.2715627103210152,0.7019583207353289
1.2786854950381132,0.6944746088470919
1.2858082797552113,0.6867605237130219
1.2929310644723093,0.6788392704671902
1.3000538491894074,0.6707339484596843
1.3071766339065052,0.6624674660688277
1.3142994186236032,0.654062458696198
1.3214222033407013,0.6455412102594255
1.3285449880577993,0.6369255784651842
1.3356677727748973,0.6282369241118829
1.3427905574919952,0.6194960446386454
1.3499133422090932,0.6107231121045497
1.3570361269261912,0.601937615750011
1.3641589116432893,0.5931583092609184
1.3712816963603873,0.5844031628258787
1.3784044810774851,0.5756893200478754
1.3855272657945832,0.5670330597439662
1.3926500505116812,0.5584497626404857
1.3997728352287793,0.5499538829466384
1.4068956199458773,0.5415589247664951
1.4140184046629751,0.5332774232882386
1.4211411893800734,0.525120930670089
1.4282639740971712,0.5171000065246651
1.4353867588142692,0.5092242128875435
1.4425095435313673,0.501502113541489
1.4496323282484653,0.49394127755506323
1.4567551129655634,0.48654828688311363
1.4638778976826612,0.4793287478667988
1.4710006823997592,0.47228730646229633
1.4781234671168573,0.4654276670199853
1.4852462518339553,0.4587526144296276
1.4923690365510534,0.4522640394417621
1.4994918212681512,0.4459629669710347
1.5066146059852492,0.4398495871834458
1.5137373907023473,0.4339232891663662
1.5208601754194453,0.42818269697758105
1.5279829601365433,0.4226257078674756
1.5351057448536412,0.4172495324667078
1.5422285295707394,0.4120507367302649
1.5493513142878372,0.40702528542763927
1.5564740990049353,0.40216858696792007
1.5635968837220333,0.3974755393479357
1.5707196684391311,0.39294057701110896
1.5778424531562294,0.3885577184045059
1.5849652378733272,0.38432061402162865
1.5920880225904253,0.3802225947188985
1.5992108073075233,0.3762567200945474
1.6063335920246211,0.37241582671981
1.6134563767417194,0.36869257601399075
1.6205791614588172,0.3650795015572191
1.6277019461759152,0.36156905563754704
1.6348247308930133,0.3581536548326297
1.6419475156101113,0.3548257244305388
1.6490703003272094,0.351577741499435
1.6561930850443072,0.348402276421876
1.6633158697614054,0.3452920327165431
1.6704386544785033,0.34223988497814745
1.6775614391956013,0.33923891477527485
1.6846842239126993,0.33628244435595017
1.6918070086297972,0.3333640680217488
1.6989297933468954,0.3304776810433424
1.7060525780639932,0.32761750600341244
1.7131753627810913,0.32477811646682775
1.7202981474981893,0.3219544578928451
1.7274209322152871,0.3191418657197068
1.7345437169323854,0.31633608056836093
1.7416665016494832,0.31353326052893626
1.7487892863665813,0.31072999051099287
1.7559120710836793,0.3079232886562892
1.7630348558007773,0.30511060983070826
1.7701576405178754,0.3022898462299251
1.7772804252349732,0.2994593251512272
1.7844032099520712,0.2966178040014301
1.7915259946691693,0.29376446262793354
1.7986487793862673,0.290898893076454
1.8057715641033654,0.28802108689469247
1.8128943488204632,0.2851314201160216
1.8200171335375614,0.2822306360710216
1.8271399182546593,0.27931982618726614
1.8342627029717573,0.27640040894900353
1.8413854876888553,0.27347410719821563
1.8485082724059532,0.2705429239668453
1.8556310571230514,0.2676091170367247
1.8627538418401492,0.2646751724288145
1.8698766265572473,0.26174377702677526
1.8769994112743453,0.25881779054160386
1.8841221959914431,0.2559002170240741
1.8912449807085414,0.25299417613006236
1.8983677654256392,0.2501028743405403
1.9054905501427373,0.2472295763331476
1.9126133348598353,0.24437757669588422
1.9197361195769334,0.2415501721656933
1.9268589042940314,0.23875063456563012
1.9339816890111292,0.23598218460407225
1.9411044737282275,0.23324796668813344
1.9482272584453253,0.23055102489126214
1.9553500431624233,0.22789428020205682
1.9624728278795214,0.22528050916780323
1.9695956125966192,0.22271232403225086
1.9767183973137175,0.22019215445289317
1.9838411820308153,0.2177222308686187
1.9909639667479133,0.215304569574234
1.9980867514650114,0.21294095954416561
2.005209536182109,0.21063295103374255
2.0123323208992074,0.20838184597301032
2.0194551056163053,0.20618869015511135
2.026577890333403,0.2040542672090079
2.0337006750505013,0.2019790943348136
2.0408234597675996,0.19996341976930654
2.0479462444846974,0.19800722193938516
2.0550690292017952,0.19611021025234818
2.0621918139188935,0.19427182746395652
2.0693145986359913,0.1924912535582861
2.076437383353089,0.1907674110674053
2.0835601680701874,0.18909897175390944
2.0906829527872857,0.18748436457526169
2.097805737504383,0.18592178484572436
2.1049285222214813,0.18440920450934128
2.1120513069385796,0.18294438343590524
2.1191740916556774,0.18152488165104436
2.126296876372775,0.1801480724114225
2.1334196610898735,0.17881115603649234
2.1405424458069713,0.17751117440918143
2.147665230524069,0.17624502605926648
2.1547880152411674,0.17500948174490807
2.1619107999582656,0.17380120044980304
2.1690335846753634,0.1726167457155984
2.1761563693924613,0.1714526022315217
2.1832791541095595,0.17030519260556473
2.1904019388266573,0.1691708942439461
2.197524723543755,0.1680460562679378
2.2046475082608534,0.16692701639942217
2.2117702929779512,0.16581011774872625
2.218893077695049,0.1646917254403355
2.2260158624121473,0.16356824301401054
2.2331386471292456,0.16243612854061595
2.2402614318463434,0.1612919103936194
2.2473842165634412,0.16013220261875866
2.2545070012805395,0.15895371984581563
2.2616297859976373,0.157753291687809
2.268752570714735,0.1565278765742603
2.2758753554318334,0.155274574966536
2.2829981401489317,0.15399064190466008
2.290120924866029,0.1526734988364726
2.2972437095831273,0.15132074468163148
2.3043664943002256,0.14993016608474377
2.3114892790173234,0.14849974681392472
2.318612063734421,0.14702767626335744
2.3257348484515195,0.14551235702098483
2.3328576331686173,0.14395241146535256
2.339980417885715,0.14234668735885175
2.3471032026028134,0.14069426240820615
2.3542259873199116,0.1389944477670167
2.3613487720370094,0.13724679045951618
2.3684715567541073,0.1354510747094026
2.3755943414712055,0.13360732216268478
2.3827171261883033,0.13171579099887248
2.389839910905401,0.12977697393054335
2.3969626956224994,0.127791595097285
2.4040854803395977,0.1257606058661911
2.411208265056695,0.12368517955743807
2.4183310497737933,0.12156670511992558
