Tasa_Simulado,Density
1.000034221022387,720.7711735319602
1.0075717260917565,804.0622550339356
1.0151092311611258,883.6298576918475
1.0226467362304954,957.3882021733606
1.0301842412998647,1023.577429048984
1.0377217463692343,1080.8741291525112
1.0452592514386039,1128.4578050895238
1.0527967565079732,1166.0284103174638
1.0603342615773428,1193.7766693288224
1.0678717666467124,1212.3146640968237
1.0754092717160817,1222.5783120150745
1.0829467767854513,1225.7153870499205
1.0904842818548206,1222.972613667221
1.0980217869241902,1215.5934355192965
1.1055592919935597,1204.7349191602334
1.113096797062929,1191.4085782408267
1.1206343021322986,1176.4463226190026
1.1281718072016682,1160.4897227835336
1.1357093122710376,1143.9986088908904
1.1432468173404071,1127.273781590467
1.1507843224097765,1110.4882360314323
1.158321827479146,1093.721634553891
1.1658593325485156,1076.993608451131
1.173396837617885,1060.2926206189954
1.1809343426872545,1043.5983914903188
1.1884718477566238,1026.8971200483334
1.1960093528259934,1010.1897912022919
1.203546857895363,993.4946571189391
1.2110843629647323,976.8454602183476
1.2186218680341019,960.2871208855781
1.2261593731034712,943.870479605265
1.2336968781728408,927.6473353266817
1.2412343832422104,911.6665575999083
1.2487718883115797,895.9715726763571
1.2563093933809493,880.5991223277053
1.2638468984503186,865.5789283462096
1.2713844035196882,850.9337889195521
1.2789219085890577,836.679673802259
1.2864594136584273,822.8255353052531
1.2939969187277967,809.3727586832863
1.3015344237971662,796.3143828687527
1.3090719288665356,783.63438228412
1.3166094339359051,771.3073785740161
1.3241469390052747,759.2991319106817
1.331684444074644,747.5680494443473
1.3392219491440136,736.0677667922329
1.346759454213383,724.7506452448467
1.3542969592827525,713.5718281763724
1.361834464352122,702.4933584715072
1.3693719694214914,691.487806099745
1.376909474490861,680.5409031255973
1.3844469795602303,669.6528218181804
1.3919844846296,658.8379301465657
1.3995219896989695,648.1230767422139
1.4070594947683388,637.5446529703755
1.4145969998377084,627.1448211896494
1.4221345049070777,616.9673692058582
1.4296720099764473,607.0536512097129
1.4372095150458168,597.4390174331977
1.4447470201151864,588.1500369307307
1.4522845251845558,579.2026992540284
1.4598220302539253,570.6016571862006
1.4673595353232947,562.3404562463606
1.4748970403926642,554.402597169591
1.4824345454620338,546.7632041879618
1.4899720505314031,539.3910335891579
1.4975095556007727,532.2505605990839
1.505047060670142,525.3039297592994
1.5125845657395116,518.5126378351134
1.5201220708088812,511.8389223498059
1.5276595758782505,505.2469287365992
1.53519708094762,498.70379790750684
1.5427345860169894,492.1808316113463
1.550272091086359,485.65484519929123
1.5578095961557286,479.10971305693465
1.5653471012250981,472.5379749442219
1.5728846062944675,465.94223840758275
1.5804221113638368,459.3360238303023
1.5879596164332064,452.7436883276657
1.595497121502576,446.1991496901056
1.6030346265719455,439.743306172814
1.6105721316413149,433.4202828492295
1.6181096367106842,427.27288312923906
1.6256471417800538,421.3378298583043
1.6331846468494233,415.64149429811636
1.640722151918793,410.1968006111641
1.6482596569881622,405.0018510043546
1.6557971620575316,400.04056286857315
1.6633346671269011,395.2852880699168
1.6708721721962707,390.70105427383567
1.6784096772656403,386.25078937993163
1.6859471823350096,381.9007138284605
1.6934846874043792,377.62504395519693
1.7010221924737485,373.4092510785368
1.708559697543118,369.251349444886
1.7160972026124877,365.1610041913114
1.723634707681857,361.15660590002807
1.7311722127512266,357.2607923242017
1.738709717820596,353.49515434224094
1.7462472228899655,349.8749979555212
1.753784727959335,346.40502292606106
1.7613222330287046,343.0766224342916
1.768859738098074,339.86723422857676
1.7763972431674433,336.74183168443415
1.7839347482368129,333.6562956466399
1.7914722533061824,330.5621180328137
1.799009758375552,327.4117062897715
1.8065472634449213,324.16351092884486
1.8140847685142907,320.7862852008004
1.8216222735836602,317.2619787390791
1.8291597786530298,313.5870195767469
1.8366972837223994,309.77199861096886
1.8442347887917687,305.8399900605583
1.851772293861138,301.8238879975433
1.8593097989305076,297.7631988072879
1.8668473039998772,293.700707006431
1.8743848090692468,289.67934606860166
1.881922314138616,285.7394841350988
1.8894598192079857,281.91670682482567
1.896997324277355,278.240073682747
1.9045348293467246,274.7307626332552
1.9120723344160941,271.4010097171076
1.9196098394854637,268.25329816842907
1.927147344554833,265.27983616350116
1.9346848496242024,262.4624583096585
1.942222354693572,259.7731567409127
1.9497598597629415,257.17545972946334
1.957297364832311,254.62680747022506
1.9648348699016804,252.08192603108893
1.9723723749710498,249.49699662320998
1.9799098800404193,246.83420517901232
1.987447385109789,244.06609373561085
1.9949848901791585,241.17907121367796
2.002522395248528,238.17550564313964
2.0100599003178976,235.0740091036419
2.0175974053872667,231.9078039297257
2.0251349104566363,228.72136391015738
2.032672415526006,225.56579056440597
2.040209920595375,222.49355750883342
2.0477474256647445,219.55330722898165
2.055284930734114,216.78531781909118
2.0628224358034837,214.2181030420854
2.0703599408728532,211.86641261613173
2.077897445942223,209.73070556922252
2.0854349510115924,207.79800935868525
2.0929724560809615,206.0439638515994
2.100509961150331,204.4357778250092
2.1080474662197006,202.9357827354738
2.1155849712890697,201.5052409435868
2.1231224763584393,200.10804815542986
2.130659981427809,198.71396784745403
2.1381974864971784,197.30106159050078
2.145734991566548,195.85704664075308
2.1532724966359176,194.3794266475947
2.160810001705287,192.87439556315414
2.1683475067746567,191.35468746571212
2.175885011844026,189.83670454404563
2.1834225169133954,188.3373681499393
2.190960021982765,186.87117682422937
2.198497527052134,185.44790866448528
2.2060350321215036,184.071280483262
2.213572537190873,182.73869808316147
2.221110042260243,181.44203790583936
2.2286475473296123,180.16923036688425
2.236185052398982,178.9063022791899
2.2437225574683515,177.63949781454392
2.2512600625377206,176.35713388945854
2.25879756760709,175.05093933677205
2.2663350726764597,173.7167497555351
2.273872577745829,172.35455137890966
2.2814100828151984,170.96796343349016
2.288947587884568,169.56330618963082
2.2964850929539375,168.14842036369146
2.304022598023307,166.73139131002284
2.3115601030926767,165.31930140070747
2.3190976081620462,163.9170979841667
2.326635113231416,162.52662967680715
2.334172618300785,161.14587263900737
2.3417101233701545,159.76833985710616
2.3492476284395236,158.38263931103359
2.356785133508893,156.97212329753245
2.3643226385782627,155.5145573486026
2.3718601436476323,153.98174232200722
2.379397648717002,152.33905609769985
2.3869351537863714,150.5449458185649
2.394472658855741,148.55049295998037
2.4020101639251106,146.29927615985267
2.4095476689944797,143.72784532911547
2.4170851740638493,140.7671641064979
2.424622679133219,137.34534667237304
2.432160184202588,133.39188988930383
2.4396976892719575,128.84338179981918
2.447235194341327,123.65037587594894
2.4547726994106966,117.78480472540402
2.462310204480066,111.24703294628769
2.4698477095494358,104.0714873234615
2.4773852146188053,96.32981221323193
2.484922719688175,88.13070780650564
2.492460224757544,79.6160061173395
2.4999977298269136,70.95306651157865
