Tasa_Simulado,Density
1.000246097996219,29.320619109560393
1.0077825130592841,30.966451241086457
1.0153189281223494,32.56555434018736
1.0228553431854144,34.10513941604933
1.0303917582484794,35.573261829454005
1.0379281733115446,36.959059373548435
1.0454645883746096,38.25296030203799
1.0530010034376749,39.44685474250466
1.06053741850074,40.53422440448301
1.068073833563805,41.51022717710252
1.0756102486268702,42.3717350223563
1.0831466636899352,43.11732541403193
1.0906830787530002,43.7472283553125
1.0982194938160654,44.26323264167351
1.1057559088791304,44.66855644225143
1.1132923239421957,44.96768838977221
1.1208287390052607,45.1662061523379
1.1283651540683257,45.270579886360245
1.135901569131391,45.28796803637367
1.143437984194456,45.226012672448036
1.150974399257521,45.09264097586747
1.1585108143205862,44.8958786502167
1.1660472293836512,44.64368001069832
1.1735836444467163,44.34377835869931
1.1811200595097815,44.00355905246636
1.1886564745728465,43.62995650672575
1.1961928896359117,43.22937525586673
1.2037293046989768,42.80763424839831
1.2112657197620418,42.36993274360343
1.218802134825107,41.92083557931544
1.226338549888172,41.46427518260208
1.2338749649512373,41.00356749892613
1.2414113800143023,40.541439003619104
1.2489477950773673,40.08006210549256
1.2564842101404325,39.62109652186113
1.2640206252034976,39.1657345584289
1.2715570402665626,38.71474862636941
1.2790934553296278,38.26853973418226
1.2866298703926928,37.827186069554486
1.2941662854557578,37.390491109000166
1.301702700518823,36.958030940987655
1.309239115581888,36.529200650871545
1.3167755306449531,36.10325969138044
1.3243119457080184,35.67937615708569
1.3318483607710834,35.25666980874291
1.3393847758341486,34.8342535725732
1.3469211908972136,34.41127309286229
1.3544576059602789,33.98694376739674
1.3619940210233439,33.56058456711201
1.369530436086409,33.131647854008214
1.3770668511494741,32.699744380584676
1.3846032662125392,32.264662689816106
1.3921396812756042,31.826382240751432
1.3996760963386694,31.385079758365887
1.4072125114017344,30.94112853835322
1.4147489264647994,30.495090713802973
1.4222853415278647,30.047702792766817
1.4298217565909297,29.599855082565657
1.4373581716539947,29.1525659064898
1.44489458671706,28.70695177023203
1.452431001780125,28.264194830412684
1.4599674168431902,27.825509141179626
1.4675038319062552,27.39210719731058
1.4750402469693205,26.96516824937585
1.4825766620323855,26.5458097400709
1.4901130770954505,26.135063008287784
1.4976494921585157,25.73385414147695
1.5051859072215807,25.342990544205282
1.5127223222846458,24.96315345137944
1.520258737347711,24.594896269832194
1.527795152410776,24.238648303466018
1.535331567473841,23.89472312518481
1.5428679825369063,23.563330621073828
1.5504043975999713,23.244591562591033
1.5579408126630363,22.938553470188864
1.5654772277261015,22.64520652095855
1.5730136427891666,22.36449832243225
1.5805500578522316,22.0963465183499
1.5880864729152968,21.84064839912157
1.595622887978362,21.597286945214986
1.6031593030414268,21.366133018286046
1.610695718104492,21.147043713439885
1.6182321331675573,20.939857177092208
1.6257685482306223,20.744384459892345
1.6333049632936874,20.560399196531353
1.6408413783567526,20.387626070481165
1.6483777934198176,20.22572912214561
1.6559142084828826,20.074300988229172
1.6634506235459479,19.932854117646055
1.6709870386090129,19.800814898770955
1.678523453672078,19.67752146221615
1.6860598687351431,19.562225704064502
1.6935962837982081,19.454099820726068
1.7011326988612732,19.352247374195855
1.7086691139243384,19.255718631984895
1.7162055289874036,19.16352966552908
1.7237419440504684,19.07468445924103
1.7312783591135337,18.98819909216423
1.738814774176599,18.90312691518227
1.7463511892396637,18.818583565447998
1.753887604302729,18.73377063919458
1.7614240193657942,18.647996884057633
1.7689604344288592,18.56069586901228
1.7764968494919242,18.47143923783817
1.7840332645549895,18.379944842338887
1.7915696796180545,18.28607927444125
1.7991060946811195,18.189854560967675
1.8066425097441847,18.09141904009516
1.8141789248072497,17.991042693261292
1.8217153398703148,17.889097450063595
1.82925175493338,17.786033206934533
1.836788169996445,17.682350494542842
1.84432458505951,17.578570886683547
1.8518610001225753,17.475206358880982
1.8593974151856405,17.37272887340173
1.8669338302487053,17.271541485622343
1.8744702453117705,17.171952232978335
1.8820066603748358,17.074151981875204
1.8895430754379008,16.97819727153619
1.8970794905009658,16.883999010217096
1.904615905564031,16.791317653922853
1.912152320627096,16.699765238133022
1.919688735690161,16.60881434848853
1.9272251507532263,16.517813818121493
1.9347615658162913,16.426010640035603
1.9422979808793563,16.332577296378552
1.9498343959424216,16.236643446663393
1.9573708110054866,16.137330697668066
1.9649072260685516,16.033789011298364
1.9724436411316169,15.9252332034674
1.9799800561946819,15.810977954449125
1.9875164712577469,15.690469793063071
1.9950528863208121,15.563314633268353
2.0025893013838774,15.429299627875682
2.010125716446942,15.288408351565776
2.0176621315100074,15.140828621919486
2.0251985465730726,14.98695259733343
2.0327349616361374,14.827369137003958
2.0402713766992027,14.662848752072243
2.047807791762268,14.494321800185771
2.0553442068253327,14.322850861198543
2.062880621888398,14.149598465056794
2.070417036951463,13.975791513087698
2.077953452014528,13.802683833997623
2.085489867077593,13.631518343406961
2.0930262821406584,13.463490232647217
2.1005626972037232,13.299712504903637
2.108099112266789,13.141185014172406
2.1156355273298537,12.988767957149571
2.1231719423929185,12.843160533944479
2.130708357455984,12.704885244861885
2.138244772519049,12.57427804138836
2.145781187582114,12.451484312533262
2.1533176026451795,12.336460473247444
2.1608540177082443,12.228980737591119
2.1683904327713095,12.128648510599099
2.1759268478343747,12.034911721534177
2.1834632628974395,11.947081347020811
2.1909996779605048,11.86435233293909
2.19853609302357,11.78582611498698
2.206072508086635,11.710533954724543
2.2136089231497,11.637460345750776
2.2211453382127653,11.565565798843215
2.22868175327583,11.493808381583555
2.2362181683388953,11.421163464359253
2.2437545834019605,11.346641208844243
2.2512909984650253,11.269301426170962
2.2588274135280906,11.188265529639217
2.266363828591156,11.102725410774616
2.2739002436542206,11.011949177413248
2.281436658717286,10.915283807152719
2.288973073780351,10.81215488688562
2.296509488843416,10.702063725959093
2.304045903906481,10.58458224232179
2.3115823189695464,10.45934612232856
2.319118734032611,10.326046839481398
2.3266551490956764,10.184423178894342
2.3341915641587416,10.03425294667234
2.3417279792218064,9.875345541710526
2.3492643942848717,9.707536028314328
2.356800809347937,9.530681270350813
2.3643372244110017,9.34465857274189
2.3718736394740674,9.149367128106215
2.379410054537132,8.944732392012964
2.386946469600197,8.730713318772688
2.3944828846632626,8.507312191967623
2.4020192997263274,8.274586592181864
2.4095557147893922,8.032662871120365
2.417092129852458,7.781750358409248
2.4246285449155227,7.522155425262433
2.432164959978588,7.254294475996279
2.439701375041653,6.9787049392136815
2.447237790104718,6.696053387070822
2.454774205167783,6.407140021460577
2.4623106202308485,6.112898924692726
2.4698470352939133,5.814393670579392
2.4773834503569785,5.512808118328417
2.4849198654200437,5.209432452993411
2.4924562804831085,4.905644778122651
2.4999926955461738,4.602888794376518
