Tasa_Simulado,Density
1.000048295462539,718.9492244665132
1.0075847668149422,798.1611429263152
1.0151212381673458,874.136620844332
1.022657709519749,945.140125024467
1.0301941808721526,1009.7091171692821
1.037730652224556,1066.7341455734356
1.0452671235769593,1115.5051429824862
1.0528035949293628,1155.7216765061098
1.0603400662817661,1187.469430273022
1.0678765376341695,1211.1689462782058
1.075413008986573,1227.505089530513
1.0829494803389763,1237.3466305716922
1.0904859516913799,1241.6648507276618
1.0980224230437832,1241.4585142037956
1.1055588943961865,1237.6903878188941
1.11309536574859,1231.2382025261495
1.1206318371009933,1222.860924701086
1.1281683084533967,1213.1796687598026
1.1357047798058002,1202.67160066667
1.1432412511582035,1191.674686407428
1.150777722510607,1180.400987080061
1.1583141938630104,1168.9562352700932
1.1658506652154137,1157.363522384696
1.1733871365678172,1145.5890194627882
1.1809236079202206,1133.5677402185709
1.188460079272624,1121.2274716169761
1.1959965506250274,1108.509195089436
1.2035330219774307,1095.3826395707697
1.2110694933298343,1081.8560554697933
1.2186059646822376,1067.9798509707193
1.2261424360346411,1053.8443331418905
1.2336789073870444,1039.57237286399
1.2412153787394478,1025.308288625779
1.2487518500918513,1011.2045556483193
1.2562883214442546,997.4080527317764
1.2638247927966582,984.0474493919688
1.2713612641490615,971.2230331505891
1.2788977355014648,958.9998347444001
1.2864342068538681,947.4044035696612
1.2939706782062717,936.4251023339332
1.301507149558675,926.0154069227277
1.3090436209110785,916.0994691784126
1.3165800922634818,906.5791442112951
1.3241165636158851,897.3417764793553
1.3316530349682887,888.2682218191051
1.339189506320692,879.240779101043
1.3467259776730955,870.1508425267989
1.3542624490254989,860.9061173841029
1.3617989203779022,851.4371631166441
1.3693353917303057,841.7028762813998
1.376871863082709,831.6943730572831
1.3844083344351126,821.4366572122983
1.391944805787516,810.9875293131604
1.3994812771399192,800.4334322918442
1.4070177484923228,789.8823131397436
1.414554219844726,779.4540398779543
1.4220906911971296,769.2693473446814
1.429627162549533,759.4385921082101
1.4371636339019362,750.0516977350972
1.4447001052543396,741.170533669079
1.452236576606743,732.8246148233593
1.4597730479591464,725.0105036967395
1.46730951931155,717.6947424009138
1.4748459906639533,710.8196453266607
1.4823824620163566,704.3109337738646
1.4899189333687601,698.0860453191896
1.4974554047211635,692.0620118637692
1.504991876073567,686.1620373131353
1.5125283474259703,680.3202532421433
1.5200648187783736,674.4845085625929
1.5276012901307772,668.617380617443
1.5351377614831805,662.6958229573044
1.542674232835584,656.7099611183618
1.5502107041879873,650.6615156603024
1.5577471755403907,644.5622026400466
1.565283646892794,638.4322841891179
1.5728201182451975,632.2992690455312
1.580356589597601,626.1966394943356
1.5878930609500044,620.1624336324554
1.5954295323024077,614.2375436342875
1.602966003654811,608.4636835475893
1.6105024750072146,602.8811009870332
1.618038946359618,597.5262179862782
1.6255754177120214,592.4294549948746
1.6331118890644247,587.6135001270926
1.640648360416828,583.0922322427407
1.6481848317692316,578.8704061451268
1.6557213031216351,574.9440863202547
1.6632577744740384,571.3017001093731
1.6707942458264418,567.9254953952211
1.678330717178845,564.7931459245771
1.6858671885312486,561.8792527521458
1.693403659883652,559.1565373723565
1.7009401312360555,556.5965995474261
1.7084766025884588,554.1702069559109
1.716013073940862,551.847180903285
1.7235495452932657,549.596029668889
1.731086016645669,547.383546635574
1.7386224879980725,545.1746229737993
1.7461589593504758,542.9325149138522
1.7536954307028791,540.6197481649161
1.7612319020552825,538.1997384880747
1.768768373407686,535.6390689339044
1.7763048447600895,532.9102118657908
1.7838413161124929,529.9943461121705
1.7913777874648962,526.8838270542178
1.7989142588172995,523.5838458984521
1.806450730169703,520.1128778465178
1.8139872015221066,516.5016651265774
1.82152367287451,512.7906904611636
1.8290601442269132,509.0263359542
1.8365966155793165,505.256150198024
1.84413308693172,501.5238213802583
1.8516695582841236,497.86454299286834
1.859206029636527,494.3014420899785
1.8667425009889302,490.8436159576578
1.8742789723413336,487.4861073491103
1.881815443693737,484.2118722418541
1.8893519150461404,480.995499155887
1.896888386398544,477.8081714647436
1.9044248577509473,474.62316690034174
1.9119613291033506,471.42109455095823
1.919497800455754,468.19409600527524
1.9270342718081575,464.9483813127986
1.934570743160561,461.704709896726
1.9421072145129643,458.4967232725235
1.9496436858653676,455.36734309741666
1.957180157217771,452.3637170542325
1.9647166285701745,449.53138698945435
1.972253099922578,446.90844402402575
1.9797895712749813,444.52041729541014
1.9873260426273847,442.37652675240764
1.994862513979788,440.46773905546473
2.0023989853321913,438.7668293826441
2.0099354566845946,437.23040273515016
2.0174719280369984,435.802595727433
2.0250083993894017,434.41998884029147
2.032544870741805,433.01712941505997
2.0400813420942088,431.5320113287196
2.047617813446612,429.9108858068419
2.0551542847990154,428.11188832780215
2.0626907561514187,426.1071476349337
2.070227227503822,423.88327129415023
2.0777636988562254,421.4403440776282
2.0853001702086287,418.7897903478079
2.0928366415610324,415.95160006470593
2.1003731129134358,412.95147028829234
2.107909584265839,409.81835813209545
2.115446055618243,406.5827875431852
2.122982526970646,403.2760334538254
2.1305189983230495,399.93007090264143
2.138055469675453,396.57797687418326
2.145591941027856,393.25435470356825
2.1531284123802594,389.9953423818209
2.1606648837326627,386.83786930067345
2.168201355085066,383.8180174516221
2.17573782643747,380.96857917504275
2.183274297789873,378.31613057593285
2.1908107691422765,375.87810632958247
2.19834724049468,373.6604301395838
2.2058837118470835,371.6562095189067
2.213420183199487,369.845852155937
2.22095665455189,368.19873396955376
2.2284931259042935,366.6762907413432
2.236029597256697,365.23616544188803
2.2435660686091,363.83686611352925
2.251102539961504,362.4423045858934
2.258639011313907,361.02560552035163
2.2661754826663105,359.571689549979
2.2737119540187143,358.0783181372985
2.2812484253711176,356.5555052876492
2.288784896723521,355.02341377405054
2.2963213680759242,353.509027129142
2.3038578394283276,352.0419998724415
2.311394310780731,350.6501273072156
2.318930782133134,349.35484650082935
2.3264672534855375,348.16709703734955
2.3340037248379413,347.0837568345045
2.3415401961903446,346.08475108839457
2.3490766675427484,345.1308365098872
2.3566131388951517,344.16200874149393
2.364149610247555,343.09648033626087
2.3716860815999583,341.8302315740876
2.3792225529523616,340.2372364822159
2.386759024304765,338.1705897519011
2.3942954956571683,335.4648750246249
2.4018319670095716,331.94018385231107
2.4093684383619753,327.40818090303577
2.4169049097143787,321.68048692976566
2.424441381066782,314.5794061561961
2.4319778524191857,305.95067271576266
2.439514323771589,295.6774726234595
2.4470507951239924,283.69457955816694
2.4545872664763957,270.0011069467368
2.462123737828799,254.67020968821
2.4696602091812023,237.85413405315708
2.4771966805336056,219.7833469293771
2.484733151886009,200.75906075844594
2.4922696232384127,181.13924098319075
2.499806094590816,161.31902634219603
