Tasa_Simulado,Density
1.0000301017761148,549.3245253115726
1.0075668094655685,607.8827894393667
1.0151035171550222,664.2251616409516
1.022640224844476,717.1359771625681
1.0301769325339294,765.5701494752366
1.037713640223383,808.7076247882374
1.0452503479128368,845.9873813909006
1.0527870556022905,877.1189029042816
1.0603237632917442,902.0718101030025
1.0678604709811979,921.0468043298704
1.0753971786706513,934.4329055260998
1.082933886360105,942.7569428475339
1.0904705940495587,946.6313210980753
1.0980073017390124,946.7053426797394
1.105544009428466,943.6240330821341
1.1130807171179198,937.9967842836494
1.1206174248073733,930.3764871810542
1.128154132496827,921.2484180840133
1.1356908401862806,911.027141419766
1.1432275478757343,900.0591619031787
1.150764255565188,888.6289855598179
1.1583009632546417,876.9665418443545
1.1658376709440952,865.2544496897082
1.1733743786335489,853.6342387172244
1.1809110863230026,842.2112372895025
1.1884477940124563,831.0583171655549
1.19598450170191,820.2189852429537
1.2035212093913636,809.7104208440601
1.2110579170808173,799.5269906810502
1.2185946247702708,789.6445762415991
1.2261313324597245,780.0257775081067
1.2336680401491782,770.6257745644978
1.2412047478386319,761.3983918665829
1.2487414555280856,752.3017635227895
1.256278163217539,743.3029686391731
1.2638148709069927,734.3810991434419
1.2713515785964464,725.5284222990334
1.2788882862859001,716.7495711403075
1.2864249939753538,708.0589899529427
1.2939617016648075,699.4771255435787
1.3014984093542612,691.0260399878619
1.309035117043715,682.7251921812473
1.3165718247331684,674.58807969531
1.324108532422622,666.6202584750763
1.3316452401120757,658.8189970737266
1.3391819478015294,651.1745218713011
1.3467186554909831,643.6725247680665
1.3542553631804366,636.2973867747407
1.3617920708698903,629.0354585103854
1.369328778559344,621.877750640378
1.3768654862487977,614.8215192391973
1.3844021939382514,607.8704563327555
1.391938901627705,601.0334710248387
1.3994756093171588,594.3223197079186
1.4070123170066122,587.7485641937608
1.414549024696066,581.3204640108482
1.4220857323855196,575.0404211797013
1.4296224400749733,568.9034916357649
1.437159147764427,562.8972776582076
1.4446958554538805,557.003258039394
1.4522325631433342,551.1993453001236
1.4597692708327878,545.4632312356553
1.4673059785222415,539.775934845783
1.4748426862116952,534.1249263089841
1.482379393901149,528.5062732650983
1.4899161015906026,522.9254267312608
1.4974528092800563,517.3965012928081
1.50498951696951,511.940164191871
1.5125262246589635,506.5804838307644
1.5200629323484172,501.3412587157408
1.5275996400378709,496.24242448936496
1.5351363477273243,491.2971085044101
1.542673055416778,486.50977641656954
1.5502097631062317,481.8757184547851
1.5577464707956854,477.3818911876466
1.565283178485139,473.00890551260636
1.5728198861745928,468.73377240984047
1.5803565938640465,464.53291441243294
1.5878933015535002,460.3849379611853
1.5954300092429539,456.2727382267712
1.6029667169324073,452.1846558540274
1.610503424621861,448.1145941342873
1.6180401323113147,444.06119840884776
1.6255768400007682,440.0263605916161
1.6331135476902219,436.0134116250607
1.6406502553796756,432.0253875773056
1.6481869630691293,428.0637010496131
1.655723670758583,424.1274342434229
1.6632603784480366,420.21332091795335
1.6707970861374903,416.3163346582897
1.678333793826944,412.430681785076
1.6858705015163977,408.55093187832784
1.6934072092058514,404.6730172761642
1.7009439168953049,400.7948906134441
1.7084806245847586,396.9167294899653
1.7160173322742123,393.040694722353
1.7235540399636657,389.17035640729216
1.7310907476531194,385.3099772924215
1.7386274553425731,381.46387136907873
1.7461641630320268,377.636033643155
1.7537008707214805,373.83017174082363
1.7612375784109342,370.05017656187977
1.768774286100388,366.30096724180623
1.7763109937898416,362.5895552017672
1.7838477014792953,358.9261097458155
1.7913844091687487,355.3247843430939
1.7989211168582024,351.8040821259162
1.8064578245476561,348.3865978501374
1.8139945322371096,345.0980621641699
1.8215312399265633,341.96571882025256
1.829067947616017,339.0161706577547
1.8366046553054707,336.272920184507
1.8441413629949244,333.7538920047107
1.851678070684378,331.469247726217
1.8592147783738318,329.41978491942996
1.8667514860632854,327.59615139550573
1.8742881937527391,325.97901127007236
1.8818249014421928,324.5401816184438
1.8893616091316463,323.2446333297369
1.8968983168211,322.0531343060626
1.9044350245105537,320.9252244882292
1.9119717322000072,319.82216469150615
1.9195084398894608,318.70950408326576
1.9270451475789145,317.558966211213
1.9345818552683682,316.34945419138495
1.942118562957822,315.06710712098044
1.9496552706472756,313.70448079184075
1.9571919783367293,312.25905236132525
1.964728686026183,310.7313386326491
1.9722653937156367,309.12295538304124
1.9798021014050902,307.43492529841075
1.9873388090945439,305.66647074972354
1.9948755167839975,303.81442159830254
2.002412224473451,301.8732508914514
2.0099489321629047,299.83564737001745
2.0174856398523584,297.69346316302966
2.025022347541812,295.4388485578482
2.032559055231266,293.0654024094895
2.0400957629207195,290.5692149799249
2.047632470610173,287.94974115761
2.055169178299627,285.21049597952674
2.0627058859890806,282.35959532164287
2.0702425936785342,279.41016538675643
2.077779301367988,276.38061854136475
2.0853160090574416,273.2947526601223
2.0928527167468953,270.18159410438346
2.100389424436349,267.0748880485015
2.1079261321258023,264.01215542892675
2.115462839815256,261.03328501920384
2.1229995475047096,258.17870314687093
2.1305362551941633,255.48724516629696
2.138072962883617,252.99392124782315
2.1456096705730707,250.72780598699472
2.153146378262524,248.7102761168756
2.1606830859519777,246.953773363411
2.1682197936414314,245.4611911517149
2.175756501330885,244.22589305184675
2.1832932090203387,243.23228853473222
2.1908299167097924,242.45683532372516
2.198366624399246,241.86931678926618
2.2059033320887,241.4342566190567
2.2134400397781535,241.11237130747273
2.220976747467607,240.86200811723904
2.228513455157061,240.6405558147474
2.2360501628465146,240.40583581697294
2.2435868705359683,240.1174782436826
2.251123578225422,239.73826494203794
2.2586602859148757,239.23539042922997
2.2661969936043294,238.58156497288252
2.273733701293783,237.75587280882536
2.2812704089832367,236.74430826771186
2.2888071166726904,235.53994150592746
2.2963438243621437,234.1427051453027
2.3038805320515974,232.558831135024
2.311417239741051,230.79999146849912
2.3189539474305048,228.8821991262226
2.3264906551199585,226.82450590886762
2.334027362809412,224.64749869869448
2.3415640704988654,222.3715587050348
2.349100778188319,220.0148262610329
2.3566374858777728,217.5908224888148
2.3641741935672265,215.10572874335463
2.37171090125668,212.5554159899615
2.379247608946134,209.92243875936887
2.3867843166355875,207.17334080851535
2.3943210243250412,204.2567328360459
2.401857732014495,201.1026643166421
2.4093944397039486,197.62379300527957
2.4169311473934023,193.718738605986
2.424467855082856,189.27778949418658
2.4320045627723097,184.19083103962225
2.4395412704617634,178.35701856808248
2.447077978151217,171.69538041655014
2.4546146858406708,164.15526729200684
2.4621513935301245,155.7254199813146
2.469688101219578,146.4404496681232
2.477224808909032,136.3837294797778
2.484761516598485,125.6860668402443
2.492298224287939,114.5200169340703
2.4998349319773925,103.09023670527817
