Tasa_Simulado,Density
1.0000050120698316,1175.5155250558741
1.0075424059723292,1320.2068182515286
1.0150797998748267,1458.1373625248368
1.0226171937773243,1585.43484073268
1.0301545876798217,1698.933548204991
1.0376919815823193,1796.3759145416334
1.0452293754848168,1876.5072141114315
1.0527667693873144,1939.0610563891985
1.0603041632898118,1984.649880808679
1.0678415571923094,2014.5869651321236
1.075378951094807,2030.6724844725154
1.0829163449973045,2034.9756527655584
1.0904537388998021,2029.639137985105
1.0979911328022995,2016.722919605551
1.1055285267047972,1998.094973771908
1.1130659206072946,1975.367689594394
1.1206033145097922,1949.8730292360442
1.1281407084122896,1922.6665415177872
1.1356781023147873,1894.5500605030174
1.1432154962172847,1866.1044379178059
1.1507528901197823,1837.7260102917714
1.15829028402228,1809.6628690523353
1.1658276779247774,1782.0488634294286
1.173365071827275,1754.9344299837094
1.1809024657297724,1728.3138797690153
1.18843985963227,1702.1489024785305
1.1959772535347675,1676.388013261498
1.203514647437265,1650.9816619925798
1.2110520413397627,1625.892840127385
1.2185894352422602,1601.1032585122691
1.2261268291447578,1576.6154727115388
1.2336642230472552,1552.4516235581539
1.2412016169497528,1528.6496756931726
1.2487390108522503,1505.258140324331
1.2562764047547479,1482.3302530910753
1.2638137986572455,1459.9184560922254
1.271351192559743,1438.0698278042591
1.2788885864622404,1416.8228454982589
1.286425980364738,1396.2055887412055
1.2939633742672356,1376.2352437167435
1.301500768169733,1356.918592094992
1.3090381620722307,1338.2530997247368
1.316575555974728,1320.2282680085145
1.3241129498772257,1302.8270470399682
1.3316503437797231,1286.0272745733314
1.3391877376822208,1269.8032250266247
1.3467251315847184,1254.12736894989
1.3542625254872158,1238.9723376782724
1.3617999193897132,1224.312895562192
1.3693373132922109,1210.127523154218
1.3768747071947085,1196.3991056608118
1.384412101097206,1183.114278188595
1.3919494949997036,1170.2612270620982
1.3994868889022012,1157.8261422223554
1.4070242828046986,1145.788958161539
1.414561676707196,1134.1193780350156
1.4220990706096936,1122.7743237522957
1.4296364645121913,1111.6978163770784
1.4371738584146887,1100.8238609466146
1.4447112523171863,1090.0822628555086
1.4522486462196837,1079.4065810845484
1.4597860401221814,1068.742803747965
1.4673234340246788,1058.0569823023477
1.4748608279271764,1047.3400974101155
1.482398221829674,1036.608878204769
1.4899356157321715,1025.9020804132736
1.497473009634669,1015.27267912524
1.5050104035371665,1004.7773280226445
1.5125477974396642,994.4650610628453
1.5200851913421616,984.3674089961644
1.5276225852446592,974.4918205070632
1.5351599791471569,964.8195844683021
1.5426973730496543,955.308514884765
1.5502347669521517,945.8997071015652
1.5577721608546493,936.5269207564697
1.565309554757147,927.1267486504901
1.5728469486596444,917.6477513148205
1.5803843425621418,908.0571307165277
1.5879217364646396,898.3441560146666
1.595459130367137,888.5202687771069
1.6029965242696345,878.6164167136026
1.610533918172132,868.6785689496871
1.6180713120746297,858.7624949642079
1.6256087059771271,848.9287589086922
1.6331460998796246,839.2385656833463
1.6406834937821222,829.750702550534
1.6482208876846198,820.5194602164052
1.6557582815871172,811.5931751405002
1.6632956754896149,803.0129528148832
1.6708330693921125,794.8112057238832
1.67837046329461,787.0098272795744
1.6859078571971073,779.6180606152707
1.693445251099605,772.6303433191745
1.7009826450021026,766.0245648051202
1.7085200389046,759.7612335814024
1.7160574328070974,753.7840117102422
1.723594826709595,748.021944835346
1.7311322206120927,742.3935188342728
1.7386696145145901,736.8124315758904
1.7462070084170878,731.1947040882357
1.7537444023195854,725.4664959148033
1.7612817962220828,719.5717672090126
1.7688191901245802,713.4787860049607
1.7763565840270779,707.1844583422081
1.7838939779295755,700.7156006457017
1.791431371832073,694.1265956935201
1.7989687657345705,687.4933570302215
1.8065061596370682,680.9041089936204
1.8140435535395656,674.4480684158584
1.821580947442063,668.2035671579418
1.8291183413445606,662.2273693905139
1.8366557352470583,656.5468435498824
1.8441931291495557,651.1562419433084
1.851730523052053,646.0176897433241
1.8592679169545507,641.0667171393478
1.8668053108570484,636.2214386155839
1.8743427047595458,631.3939345804046
1.8818800986620434,626.5021186793383
1.889417492564541,621.4804076106332
1.8969548864670385,616.2878102706861
1.9044922803695359,610.9125315011661
1.9120296742720335,605.3727340896143
1.9195670681745312,599.7136213249521
1.9271044620770286,594.0014212182442
1.9346418559795262,588.3151394706894
1.9421792498820238,582.737100560371
1.9497166437845213,577.3433335928195
1.9572540376870187,572.1948061178203
1.9647914315895163,567.3303851305188
1.972328825492014,562.7622228015848
1.9798662193945114,558.4740332879904
1.9874036132970088,554.4224553218227
1.9949410071995064,550.5413982036889
2.002478401102004,546.748969507094
2.0100157950045014,542.9563108856181
2.017553188906999,539.077455358315
2.0250905828094963,535.0391926745646
2.032627976711994,530.7899065522116
2.040165370614492,526.3064333323437
2.0477027645169894,521.5981765544841
2.055240158419487,516.7079748366099
2.0627775523219842,511.7095321988911
2.0703149462244816,506.7015490971338
2.077852340126979,501.79900990719113
2.085389734029477,497.1223649846327
2.0929271279319743,492.7855751432176
2.100464521834472,488.8841492798726
2.1080019157369696,485.4843872770782
2.115539309639467,482.61502226970435
2.1230767035419644,480.26231838532766
2.130614097444462,478.36940514154213
2.1381514913469597,476.8402148087841
2.145688885249457,475.5478570429819
2.153226279151955,474.346672546146
2.1607636730544524,473.0866436511835
2.16830106695695,471.6284132390873
2.175838460859447,469.85697829773454
2.1833758547619446,467.69225061774347
2.1909132486644425,465.09512451826214
2.19845064256694,462.0683971730531
2.2059880364694378,458.6527217508082
2.213525430371935,454.9185680728564
2.2210628242744326,450.95575167954945
2.22860021817693,446.8623467544445
2.2361376120794274,442.73467659074754
2.2436750059819253,438.65962418362136
2.2512123998844227,434.7098512830408
2.2587497937869205,430.94182735736825
2.266287187689418,427.3960181608779
2.2738245815919154,424.09828682655126
2.2813619754944128,421.0615607660518
2.28889936939691,418.28707353529603
2.2964367632994076,415.7648952122815
2.3039741572019055,413.4738811264187
2.3115115511044033,411.38147188134457
2.3190489450069007,409.44388756009204
2.326586338909398,407.60715783044344
2.3341237328118956,405.80915873165685
2.341661126714393,403.98246851008975
2.3491985206168904,402.05750652103364
2.3567359145193882,399.96516990717686
2.3642733084218857,397.6380973199875
2.3718107023243835,395.00980205287516
2.379348096226881,392.0112336086346
2.3868854901293783,388.56482379731466
2.3944228840318758,384.57669831509776
2.401960277934373,379.92840107743353
2.409497671836871,374.4700643427996
2.4170350657393684,368.0173128829973
2.4245724596418663,360.3541610611758
2.4321098535443637,351.2436299487476
2.439647247446861,340.4467450784775
2.4471846413493585,327.7490683427655
2.454722035251856,312.9922058888467
2.462259429154354,296.1061691786447
2.469796823056851,277.1374453073875
2.477334216959349,256.2674950184282
2.4848716108618465,233.81731953789034
2.492409004764344,210.23565858356477
2.4999463986668413,186.0709851815075
