Tasa_Simulado,Density
1.003011393623182,6.215348794198135
1.0105257842219046,6.45164009014664
1.0180401748206276,6.677249980444337
1.0255545654193503,6.890958814743393
1.0330689560180732,7.09168973192243
1.040583346616796,7.278524202459385
1.0480977372155187,7.4507142279470076
1.0556121278142416,7.607690891710905
1.0631265184129643,7.749069057484213
1.0706409090116873,7.874648122963392
1.07815529961041,7.984408847952395
1.0856696902091327,8.078506388725065
1.0931840808078557,8.157259777278798
1.1006984714065784,8.221138182619866
1.1082128620053013,8.27074437778953
1.115727252604024,8.306795908185913
1.1232416432027468,8.330104511652829
1.1307560338014697,8.341554377264908
1.1382704244001924,8.342079846943095
1.1457848149989152,8.33264316192432
1.153299205597638,8.314212835336473
1.1608135961963608,8.287743194003335
1.1683279867950838,8.25415557901073
1.1758423773938065,8.21432162786637
1.1833567679925292,8.169048984002186
1.1908711585912521,8.119069694856444
1.1983855491899749,8.065031470897244
1.2058999397886976,8.007491887763285
1.2134143303874205,7.9469155251295955
1.2209287209861432,7.8836739516622005
1.2284431115848662,7.818048387910137
1.235957502183589,7.7502348102349625
1.2434718927823116,7.680351200530647
1.2509862833810346,7.608446599743811
1.2585006739797573,7.5345115888369065
1.2660150645784802,7.4584897991924155
1.273529455177203,7.380290045484291
1.2810438457759257,7.299798677327214
1.2885582363746486,7.216891760818973
1.2960726269733713,7.131446726399303
1.3035870175720943,7.043353154018783
1.311101408170817,6.952522409019914
1.3186157987695397,6.858895890824498
1.3261301893682627,6.762451709854553
1.3336445799669854,6.66320966440172
1.3411589705657083,6.56123444671225
1.348673361164431,6.4566370647147595
1.3561877517631538,6.349574520998092
1.3637021423618767,6.240247842362681
1.3712165329605994,6.128898600168566
1.3787309235593224,6.015804102598855
1.386245314158045,5.90127147384992
1.3937597047567678,5.785630861362242
1.4012740953554907,5.66922802996687
1.4087884859542135,5.552416610934768
1.4163028765529364,5.435550274332954
1.4238172671516591,5.318975085022435
1.4313316577503818,5.203022286544149
1.4388460483491048,5.08800173373781
1.4463604389478275,4.97419616515224
1.4538748295465505,4.861856471253727
1.4613892201452732,4.7511980753959735
1.468903610743996,4.6423985028690815
1.4764180013427186,4.535596170549149
1.4839323919414416,4.430890387193692
1.4914467825401645,4.328342513705103
1.4989611731388872,4.227978195061999
1.50647556373761,4.129790542312092
1.5139899543363327,4.03374411506952
1.5215043449350556,3.9397795331937635
1.5290187355337785,3.847818531338368
1.5365331261325013,3.757769262181847
1.544047516731224,3.669531653462969
1.5515619073299467,3.583002630249175
1.5590762979286696,3.4980810267318194
1.5665906885273926,3.414672030597513
1.5741050791261153,3.332691026804846
1.581619469724838,3.2520667353704105
1.5891338603235607,3.172743568385898
1.5966482509222837,3.0946831637227015
1.6041626415210064,3.017865085475672
1.6116770321197293,2.942286712917696
1.619191422718452,2.8679623694096747
1.6267058133171748,2.794921769273159
1.6342202039158977,2.7232078831679276
1.6417345945146204,2.6528743402843555
1.6492489851133434,2.5839824981240698
1.656763375712066,2.516598317484406
1.6642777663107888,2.4507891813933993
1.6717921569095118,2.386620792299807
1.6793065475082345,2.3241542721622586
1.6868209381069574,2.263443575758862
1.6943353287056802,2.2045333092827417
1.7018497193044029,2.1474570249729625
1.7093641099031256,2.092236039130173
1.7168785005018485,2.038878796422388
1.7243928911005715,1.9873807789561742
1.7319072816992942,1.9377249352052017
1.739421672298017,1.889882582514078
1.7469360628967396,1.843814718384871
1.7544504534954626,1.7994736608154347
1.7619648440941855,1.7568049271285353
1.7694792346929082,1.7157492543503723
1.776993625291631,1.676244662401706
1.7845080158903537,1.6382284640811295
1.7920224064890766,1.6016391327724278
1.7995367970877996,1.5664179495358626
1.8070511876865223,1.532510365124698
1.814565578285245,1.4998670287531097
1.8220799688839677,1.4684444532891203
1.8295943594826907,1.4382053050667705
1.8371087500814136,1.4091183248109167
1.8446231406801363,1.3811579033899488
1.852137531278859,1.3543033514795293
1.8596519218775818,1.328537915072323
1.8671663124763047,1.3038475985882652
1.8746807030750277,1.280219863776712
1.8821950936737504,1.257642275484827
1.889709484272473,1.236101164707025
1.8972238748711958,1.2155803753149923
1.9047382654699188,1.196060153844065
1.9122526560686417,1.177516232163516
1.9197670466673644,1.1599191413761587
1.9272814372660871,1.143233782539559
1.9347958278648099,1.1274192664735823
1.9423102184635328,1.1124290217110449
1.9498246090622555,1.0982111572126998
1.9573389996609785,1.0847090553855816
1.9648533902597012,1.0718621616948354
1.972367780858424,1.0596069301023714
1.9798821714571468,1.047877878925695
1.9873965620558696,1.0366087095716088
1.9949109526545925,1.0257334409105445
2.0024253432533152,1.0151875146395255
2.009939733852038,1.004908831547258
2.0174541244507607,0.9948386847683978
2.0249685150494834,0.98492256345841
2.0324829056482066,0.9751108083648686
2.0399972962469293,0.9653591090388453
2.047511686845652,0.9556288404654489
2.055026077444375,0.9458872442848163
2.062540468043098,0.9361074661774342
2.0700548586418206,0.9262684661340588
2.0775692492405433,0.9163548220426623
2.085083639839266,0.9063564492176339
2.0925980304379888,0.896268259175565
2.1001124210367115,0.8860897802172428
2.107626811635434,0.8758247603700966
2.1151412022341574,0.8654807702013292
2.12265559283288,0.8550688191940657
2.1301699834316032,0.8446029950765085
2.137684374030326,0.8341001310043555
2.1451987646290487,0.8235795011070142
2.1527131552277714,0.8130625408818868
2.160227545826494,0.8025725854847829
2.167741936425217,0.7921346162987658
2.1752563270239396,0.7817750043964506
2.1827707176226623,0.7715212387139674
2.1902851082213854,0.7614016269450287
2.197799498820108,0.7514449583039334
2.205313889418831,0.7416801193124136
2.212828280017554,0.7321356565112974
2.2203426706162768,0.7228392833260071
2.2278570612149995,0.7138173320435603
2.235371451813722,0.7050941557930089
2.242885842412445,0.696691489361944
2.2504002330111676,0.6886277814343219
2.2579146236098904,0.6809175142177065
2.2654290142086135,0.6735705292791532
2.2729434048073363,0.6665913805916208
2.280457795406059,0.6599787372000807
2.287972186004782,0.653724858473906
2.295486576603505,0.6478151645791645
2.3030009672022276,0.6422279235750292
2.3105153578009503,0.6369340744398406
2.318029748399673,0.6318972024230384
2.3255441389983957,0.6270736794864713
2.3330585295971185,0.6224129783548747
2.3405729201958416,0.6178581639737711
2.3480873107945643,0.6133465611235313
2.355601701393287,0.6088105917221174
2.3631160919920102,0.6041787701340977
2.370630482590733,0.5993768397593001
2.3781448731894557,0.5943290294669196
2.3856592637881784,0.5889594042273921
2.393173654386901,0.5831932807190607
2.400688044985624,0.5769586758761074
2.4082024355843465,0.5701877544030509
2.4157168261830693,0.562818240288704
2.4232312167817924,0.5547947573599327
2.430745607380515,0.5460700649432877
2.4382599979792383,0.5366061567391064
2.445774388577961,0.5263751940140209
2.4532887791766838,0.5153602481078481
2.4608031697754065,0.503555831923347
2.468317560374129,0.4909682053880789
2.475831950972852,0.4776154456889029
2.4833463415715746,0.46352727920441356
2.4908607321702974,0.44874467830894993
2.4983751227690205,0.433319232396771
