Tasa_Simulado,Density
1.0000308220923302,2081.386784456063
1.0075682728199726,2374.6445753439216
1.015105723547615,2653.7674044074856
1.0226431742752577,2909.3904725110474
1.0301806250029002,3134.191653831977
1.0377180757305426,3323.441054017988
1.045255526458185,3475.1734048578614
1.0527929771858278,3589.9963794624473
1.0603304279134702,3670.6134736851272
1.0678678786411127,3721.180244797643
1.075405329368755,3746.621531398154
1.0829427800963978,3752.018142154862
1.0904802308240402,3742.1344380429364
1.0980176815516827,3721.1157986464827
1.1055551322793251,3692.348120771293
1.1130925830069678,3658.4469433431354
1.1206300337346102,3621.33325161192
1.1281674844622527,3582.3542217756785
1.1357049351898951,3542.415746043075
1.1432423859175378,3502.1049330745836
1.1507798366451802,3461.7914045154057
1.1583172873728227,3421.704193532036
1.1658547381004651,3381.985918937657
1.1733921888281078,3342.7281126865473
1.1809296395557503,3303.9919711546136
1.1884670902833927,3265.81825627354
1.1960045410110351,3228.2293041698017
1.2035419917386778,3191.225594562548
1.2110794424663203,3154.7793280084816
1.2186168931939627,3118.8278992413602
1.2261543439216052,3083.2707042402776
1.2336917946492478,3047.972835079261
1.2412292453768903,3012.7783617552745
1.2487666961045327,2977.53381632622
1.2563041468321752,2942.1194353360365
1.2638415975598178,2906.4824922514044
1.2713790482874603,2870.664814567128
1.2789164990151027,2834.8163921294868
1.2864539497427452,2799.1893343847964
1.2939914004703876,2764.110934724386
1.3015288511980303,2729.94001164442
1.3090663019256727,2697.0153292910945
1.3166037526533152,2665.60722785981
1.3241412033809579,2635.8828322991235
1.3316786541086003,2607.8916059346534
1.3392161048362428,2581.5727479843135
1.3467535555638852,2556.780641527539
1.3542910062915277,2533.3207515617632
1.3618284570191703,2510.9869401881265
1.3693659077468128,2489.5921690077325
1.3769033584744552,2468.9873462239025
1.3844408092020979,2449.0666210739123
1.3919782599297403,2429.7607189387536
1.3995157106573828,2411.0222378682606
1.4070531613850252,2392.8078955840588
1.4145906121126677,2375.0625876612307
1.4221280628403103,2357.709068157948
1.4296655135679528,2340.6454364436213
1.4372029642955952,2323.7507318508583
1.444740415023238,2306.897089062556
1.4522778657508804,2289.96536921769
1.4598153164785228,2272.860237601529
1.4673527672061653,2255.5205665343447
1.4748902179338077,2237.921951073147
1.4824276686614504,2220.069972423352
1.4899651193890928,2201.9852883204076
1.4975025701167353,2183.6840780437064
1.505040020844378,2165.1591159161053
1.5125774715720204,2146.3671909184122
1.5201149222996628,2127.2274603398564
1.5276523730273053,2107.6328148846587
1.5351898237549477,2087.473076863791
1.5427272744825902,2066.6657455502236
1.5502647252102328,2045.1879077102285
1.5578021759378753,2023.1023962252518
1.565339626665518,2000.572374185556
1.5728770773931604,1977.8608476675797
1.5804145281208029,1955.3144841948103
1.5879519788484453,1933.333829407159
1.5954894295760877,1912.3340674013002
1.6030268803037302,1892.7016544298206
1.6105643310313729,1874.7525124408114
1.6181017817590153,1858.6971472619123
1.625639232486658,1844.6171808833278
1.6331766832143004,1832.456412492057
1.6407141339419429,1822.0276861446387
1.6482515846695853,1813.0346685556058
1.6557890353972278,1805.1054123959048
1.6633264861248702,1797.832724873318
1.6708639368525129,1790.8153329432519
1.6784013875801553,1783.693956578062
1.685938838307798,1776.1777191936555
1.6934762890354405,1768.0585606413051
1.701013739763083,1759.2139181798154
1.7085511904907253,1749.6002201404385
1.7160886412183678,1739.2410812625476
1.7236260919460102,1728.2141492704206
1.731163542673653,1716.6393769065464
1.7387009934012954,1704.669540614258
1.746238444128938,1692.481838873203
1.7537758948565805,1680.2681621151085
1.761313345584223,1668.2216663400102
1.7688507963118654,1656.5186672683565
1.7763882470395078,1645.297135487641
1.7839256977671503,1634.6353697964332
1.791463148494793,1624.535840200614
1.7990005992224354,1614.919089854567
1.806538049950078,1605.6308620915174
1.8140755006777205,1596.4627401237271
1.821612951405363,1587.1834100444148
1.8291504021330054,1577.5751146763723
1.8366878528606478,1567.4686452059652
1.8442253035882903,1556.7705662978558
1.851762754315933,1545.4780746321308
1.8593002050435754,1533.6794127134865
1.866837655771218,1521.540449349954
1.8743751064988605,1509.2803281808513
1.881912557226503,1497.1406090911703
1.8894500079541454,1485.3529448363668
1.8969874586817879,1474.1100970521288
1.9045249094094303,1463.5441773115615
1.912062360137073,1453.7146369222571
1.9195998108647154,1444.606972118675
1.927137261592358,1436.1415826898015
1.9346747123200005,1428.1908972538208
1.942212163047643,1420.601877137391
1.9497496137752854,1413.220407061117
1.9572870645029279,1405.9139226513382
1.9648245152305703,1398.5889480519847
1.9723619659582128,1391.2010349513885
1.9798994166858555,1383.7558598669593
1.987436867413498,1376.3017947109836
1.9949743181411406,1368.9158349662441
2.002511768868783,1361.685983704359
2.0100492195964255,1354.693704206399
2.017586670324068,1347.9996860121748
2.0251241210517104,1341.6350018196695
2.032661571779353,1335.5981256020186
2.0401990225069957,1329.8567650368675
2.0477364732346377,1324.352540068352
2.0552739239622806,1319.0064964767853
2.062811374689923,1313.724216846098
2.0703488254175655,1308.4004920659456
2.077886276145208,1302.9245801114996
2.0854237268728504,1297.187493225707
2.0929611776004933,1291.0922705962362
2.1004986283281353,1284.566934021184
2.108036079055778,1277.5782482949285
2.11557352978342,1270.1431456156631
2.123110980511063,1262.3342892215176
2.1306484312387055,1254.2770302980803
2.138185881966348,1246.13683936582
2.1457233326939904,1238.098676343422
2.153260783421633,1230.3419865618596
2.1607982341492757,1223.0163693440722
2.1683356848769177,1216.2230044318303
2.1758731356045606,1210.0055840213931
2.183410586332203,1204.35215224979
2.1909480370598455,1199.2065736281997
2.198485487787488,1194.4861025645948
2.2060229385151304,1190.1003254982675
2.2135603892427733,1185.9668808558258
2.2210978399704153,1182.0207107541094
2.228635290698058,1178.2156948617435
2.2361727414257,1174.5197073148925
2.243710192153343,1170.9057915759845
2.2512476428809856,1167.342848673729
2.258785093608628,1163.788890364048
2.2663225443362705,1160.188757788147
2.273859995063913,1156.476709307377
2.281397445791556,1152.582948828192
2.288934896519198,1148.442375204464
2.2964723472468407,1144.0037036858585
2.304009797974483,1139.2374856989813
2.3115472487021256,1134.142098228066
2.319084699429768,1128.747145675406
2.3266221501574105,1123.1137350908461
2.3341596008850534,1117.3308217184654
2.3416970516126954,1111.5065600246728
2.3492345023403383,1105.753678057177
2.3567719530679803,1100.1685256120495
2.364309403795623,1094.8045640200685
2.3718468545232656,1089.6423372462016
2.379384305250908,1084.5589508089413
2.3869217559785505,1079.3004712830207
2.394459206706193,1073.460441418287
2.401996657433836,1066.4672200798348
2.409534108161478,1057.5826015096711
2.4170715588891207,1045.9144912704749
2.424609009616763,1030.4472059538036
2.4321464603444056,1010.0935358590357
2.439683911072048,983.7719916264855
2.4472213617996905,950.5096571449131
2.454758812527333,909.5654757380372
2.4622962632549754,860.5614097289963
2.4698337139826183,803.6017080985382
2.4773711647102603,739.3561548268634
2.484908615437903,669.0840893401539
2.4924460661655456,594.5833703116814
2.499983516893188,518.0614902233033
