Tasa_Simulado,Density
1.0000447673283153,124.44182939032581
1.0075810441586648,134.34139779391467
1.0151173209890145,144.00732300047986
1.022653597819364,153.32381344052126
1.0301898746497136,162.18494514620613
1.0377261514800633,170.49793899904464
1.0452624283104128,178.18574147131713
1.0527987051407626,185.18879037535982
1.060334981971112,191.4659066531542
1.0678712588014616,196.99431476380676
1.0754075356318114,201.76885221303934
1.0829438124621609,205.80047828976427
1.0904800892925104,209.11422932648364
1.0980163661228601,211.7467904473186
1.1055526429532097,213.74386109263006
1.1130889197835592,215.1574844616172
1.120625196613909,216.0434915786462
1.1281614734442584,216.45918211877142
1.1356977502746082,216.46133010217767
1.1432340271049577,216.10456683546425
1.1507703039353072,215.44015944748685
1.158306580765657,214.5151737867368
1.1658428575960065,213.37198720254082
1.173379134426356,212.0481007774937
1.1809154112567057,210.57619198033984
1.1884516880870553,208.98434678751772
1.1959879649174048,207.29641385546964
1.2035242417477545,205.53243077850823
1.211060518578104,203.70908221347662
1.2185967954084536,201.84016016982727
1.2261330722388033,199.937006775707
1.2336693490691528,198.00892839376723
1.2412056258995026,196.06357649811326
1.248741902729852,194.10729501181584
1.2562781795602016,192.14543592421353
1.2638144563905513,190.18264527585967
1.2713507332209009,188.22312049217098
1.2788870100512506,186.2708381214588
1.2864232868816001,184.32974885806283
1.2939595637119496,182.40393482957893
1.3014958405422994,180.49772293046047
1.309032117372649,178.61574780001826
1.3165683942029984,176.7629590340982
1.3241046710333482,174.94456939581676
1.3316409478636977,173.1659440095369
1.3391772246940472,171.43243450505628
1.346713501524397,169.74916643616777
1.3542497783547465,168.12079256696563
1.361786055185096,166.55122831258157
1.3693223320154457,165.0433882786574
1.3768586088457953,163.59894408821896
1.3843948856761448,162.21812327018804
1.3919311625064945,160.89956683362558
1.399467439336844,159.64025937712472
1.4070037161671936,158.43554047946736
1.4145399929975433,157.27920013960565
1.4220762698278928,156.16365474458365
1.4296125466582426,155.0801940514204
1.437148823488592,154.0192845539656
1.4446851003189418,152.97091085068553
1.4522213771492913,151.92493456029763
1.4597576539796409,150.8714500807582
1.4672939308099906,149.80111797912872
1.4748302076403401,148.70545977137877
1.4823664844706896,147.57710189018087
1.4899027613010394,146.40996124453437
1.497439038131389,145.19936942793848
1.5049753149617384,143.94213686044617
1.5125115917920882,142.6365615880629
1.5200478686224377,141.28238988686132
1.5275841454527872,139.88073716158505
1.535120422283137,138.43397796845574
1.5426566991134865,136.94561352453243
1.550192975943836,135.42012405758948
1.5577292527741857,133.8628120882624
1.5652655296045352,132.27964148046237
1.5728018064348848,130.6770760424906
1.5803380832652345,129.06192071864638
1.5878743600955842,127.4411679964912
1.5954106369259335,125.82185200494847
1.6029469137562833,124.21091277397203
1.610483190586633,122.61507312459293
1.6180194674169825,121.04073052479542
1.625555744247332,119.49386588564919
1.6330920210776818,117.97997064377579
1.6406282979080313,116.50399260512386
1.6481645747383808,115.07029999480021
1.6557008515687306,113.68266209578447
1.6632371283990801,112.3442439140535
1.6707734052294296,111.05761162263819
1.6783096820597794,109.82474522673165
1.685845958890129,108.64705502167125
1.6933822357204784,107.52539899038756
1.7009185125508282,106.46009924790313
1.7084547893811777,105.45095687155363
1.7159910662115272,104.4972657965332
1.723527343041877,103.59782772271751
1.7310636198722265,102.75097098434071
1.738599896702576,101.95457691480647
1.7461361735329257,101.20611727421733
1.7536724503632755,100.50270573821636
1.7612087271936248,99.8411652879447
1.7687450040239745,99.21811168469267
1.7762812808543242,98.63005122477021
1.7838175576846738,98.0734888755832
1.7913538345150233,97.54504095525317
1.798890111345373,97.04154500502811
1.8064263881757225,96.56015865866918
1.813962665006072,96.0984393166453
1.8214989418364218,95.65439737353742
1.8290352186667713,95.22651759961654
1.8365714954971208,94.8137458965047
1.8441077723274706,94.41544177551756
1.85164404915782,94.03130020397042
1.8591803259881696,93.66124954366967
1.8667166028185194,93.30533478754629
1.8742528796488689,92.96359686443317
1.8817891564792184,92.63595921399924
1.8893254333095681,92.32213205901327
1.8968617101399177,92.02154289912842
1.9043979869702672,91.73329894332879
1.911934263800617,91.4561838261903
1.9194705406309667,91.18868742337239
1.927006817461316,90.9290643119933
1.9345430942916657,90.67541378245369
1.9420793711220155,90.42577257333461
1.949615647952365,90.17821081381537
1.9571519247827145,89.93092201906632
1.9646882016130642,89.68229926093821
1.9722244784434138,89.43099159261604
1.9797607552737633,89.17593714464941
1.987297032104113,88.91637172180721
1.9948333089344625,88.65181394083035
2.002369585764812,88.38202975413185
2.009905862595162,88.10698049086429
2.017442139425511,87.82675929560001
2.024978416255861,87.54152111755184
2.0325146930862106,87.25141131456596
2.0400509699165603,86.95649762073225
2.0475872467469096,86.65670980519648
2.0551235235772594,86.35179090291577
2.0626598004076087,86.04126344990502
2.0701960772379584,85.7244136735588
2.077732354068308,85.40029599701255
2.085268630898658,85.06775942077351
2.0928049077290076,84.72549626298633
2.100341184559357,84.37211233327298
2.107877461389706,84.00621591373418
2.115413738220056,83.62652103474109
2.1229500150504057,83.23195865035676
2.1304862918807554,82.82178768460405
2.138022568711105,82.39569680552879
2.1455588455414545,81.953887440414
2.1530951223718042,81.49712915889727
2.1606313992021535,81.02678020148994
2.1681676760325033,80.54476856493577
2.175703952862853,80.05353247409484
2.1832402296932027,79.55592294020147
2.190776506523552,79.05507499454522
2.198312783353902,78.55425761241287
2.205849060184251,78.05671483537742
2.213385337014601,77.56551177092511
2.2209216138449506,77.08339874613989
2.2284578906753003,76.6127048494224
2.23599416750565,76.15526854938837
2.2435304443359994,75.71240837298127
2.2510667211663486,75.28493126554051
2.2586029979966984,74.8731708696621
2.266139274827048,74.47704321650598
2.273675551657398,74.09610385600183
2.2812118284877476,73.72958878071674
2.288748105318097,73.3764219620126
2.296284382148446,73.03517503120445
2.303820658978796,72.70396947151688
2.3113569358091457,72.38031826838431
2.3188932126394954,72.06091171907583
2.326429489469845,71.74136029806353
2.3339657663001945,71.4159152983954
2.341502043130544,71.07719459984379
2.3490383199608935,70.71594559779729
2.3565745967912433,70.32087944537804
2.364110873621593,69.878609891531
2.3716471504519427,69.37372595250208
2.379183427282292,68.78902050722861
2.386719704112642,68.10588700180612
2.394255980942991,67.30488438567863
2.401792257773341,66.36645701264139
2.4093285346036906,65.27178253384996
2.4168648114340403,64.00370791217878
2.42440108826439,62.54772275218269
2.4319373650947393,60.892911255564776
2.4394736419250886,59.032820196252295
2.4470099187554384,56.96618100806523
2.454546195585788,54.69742967806372
2.462082472416138,52.236978505149104
2.4696187492464876,49.601208335239924
2.477155026076837,46.812167615284636
2.4846913029071866,43.89698415741364
2.492227579737536,40.887015271730206
2.4997638565678857,37.816780224486
