Tasa_Simulado,Density
1.002063546964311,1.7965759677050868
1.0093687010469596,1.8482407886959733
1.0166738551296082,1.8988723472513274
1.0239790092122567,1.9483374138697571
1.0312841632949052,1.9965073859730675
1.0385893173775538,2.0432591064896752
1.0458944714602025,2.088475640627081
1.053199625542851,2.1320470028032865
1.0605047796254996,2.173870826237701
1.0678099337081481,2.2138529683378905
1.0751150877907967,2.251908045751763
1.0824202418734452,2.2879598937749934
1.0897253959560937,2.32194194569958
1.0970305500387423,2.3537975286483848
1.1043357041213908,2.3834800734484043
1.1116408582040394,2.4109532371375386
1.1189460122866879,2.436190937760137
1.1262511663693364,2.459177302169649
1.133556320451985,2.479906528606335
1.1408614745346337,2.4983826668379887
1.1481666286172822,2.5146193196267492
1.1554717826999308,2.528639270200255
1.1627769367825793,2.540474041246914
1.1700820908652279,2.550163391710222
1.1773872449478764,2.557754758314555
1.184692399030525,2.563302649305342
1.1919975531131735,2.5668679983220217
1.199302707195822,2.5685174866370266
1.2066078612784705,2.5683228421847404
1.2139130153611193,2.5663601238689706
1.2212181694437678,2.562708999577081
1.2285233235264164,2.557452026146089
1.235828477609065,2.55067393922577
1.2431336316917134,2.542460960573065
1.250438785774362,2.532900129799793
1.2577439398570105,2.522078666992212
1.265049093939659,2.5100833719386433
1.2723542480223076,2.4970000649532946
1.279659402104956,2.482913073485083
1.2869645561876046,2.467904767864665
1.2942697102702532,2.452055148686491
1.3015748643529017,2.43544148746116
1.3088800184355502,2.4181380213220396
1.316185172518199,2.400215701743869
1.3234903266008475,2.3817419964441195
1.330795480683496,2.3627807429030567
1.3381006347661446,2.343392051267753
1.3454057888487931,2.323632253808453
1.3527109429314417,2.3035538975816614
1.3600160970140902,2.2832057765290648
1.3673212510967387,2.262632998910017
1.3746264051793875,2.2418770857297976
1.381931559262036,2.2209760956870497
1.3892367133446846,2.1999647721198023
1.396541867427333,2.178874707476806
1.4038470215099816,2.157734520974178
1.4111521755926302,2.136570045309333
1.4184573296752787,2.1154045185862826
1.4257624837579272,2.0942587779487845
1.4330676378405758,2.0731514518094833
1.4403727919232243,2.052099147992529
1.4476779460058729,2.031116635562063
1.4549831000885214,2.0102170185769546
1.46228825417117,1.989411900481378
1.4695934082538185,1.968711538299093
1.476898562336467,1.9481249862357175
1.4842037164191157,1.927660228697674
1.4915088705017643,1.9073243030995628
1.4988140245844128,1.88712341314593
1.5061191786670614,1.8670630335324234
1.5134243327497099,1.847148007210384
1.5207294868323584,1.8273826364952073
1.528034640915007,1.8077707693709413
1.5353397949976557,1.788315882351958
1.5426449490803043,1.769021161209463
1.5499501031629528,1.7498895807594679
1.5572552572456013,1.7309239847451234
1.5645604113282499,1.7121271666361424
1.5718655654108984,1.693501951919331
1.579170719493547,1.6750512821751655
1.5864758735761955,1.6567783009354096
1.593781027658844,1.6386864410054176
1.6010861817414925,1.6207795126220566
1.608391335824141,1.6030617915137675
1.6156964899067896,1.5855381056430704
1.6230016439894381,1.568213919152573
1.6303067980720867,1.5510954118119196
1.6376119521547352,1.5341895520824715
1.6449171062373837,1.5175041617852596
1.6522222603200323,1.5010479702811172
1.6595274144026808,1.484830656053635
1.6668325684853296,1.4688628736281835
1.674137722567978,1.4531562638644802
1.6814428766506266,1.4377234458255532
1.6887480307332752,1.4225779886503485
1.6960531848159237,1.4077343621370042
1.7033583388985722,1.3932078650741793
1.710663492981221,1.3790145307324055
1.7179686470638695,1.3651710093391438
1.725273801146518,1.35169442780136
1.7325789552291666,1.3386022273993678
1.7398841093118151,1.3259119806451218
1.7471892633944637,1.3136411889674429
1.7544944174771122,1.3018070633450687
1.7617995715597607,1.2904262904459156
1.7691047256424093,1.2795147872372523
1.7764098797250578,1.2690874473971225
1.7837150338077064,1.2591578831733168
1.7910201878903549,1.2497381665944198
1.7983253419730034,1.24083857413089
1.805630496055652,1.2324673390269927
1.8129356501383005,1.224630415572109
1.820240804220949,1.2173312595494998
1.8275459583035976,1.2105706289905196
1.8348511123862463,1.2043464091725444
1.8421562664688949,1.1986534655312242
1.8494614205515434,1.1934835278153775
1.856766574634192,1.1888251084007038
1.8640717287168405,1.1846634572027885
1.871376882799489,1.1809805550983672
1.8786820368821378,1.177755147185295
1.8859871909647863,1.1749628165961954
1.8932923450474348,1.1725760989392062
1.9005974991300834,1.170564636783081
1.907902653212732,1.1688953729452436
1.9152078072953804,1.1675327806923315
1.922512961378029,1.1664391283356688
1.9298181154606775,1.1655747751106977
1.937123269543326,1.1648984946812801
1.9444284236259746,1.1643678221174867
1.951733577708623,1.1639394197687636
1.9590387317912716,1.1635694571017412
1.9663438858739202,1.1632139993004595
1.9736490399565687,1.1628293992422718
1.9809541940392172,1.16237268736892
1.9882593481218658,1.1618019539716806
1.9955645022045143,1.1610767185024957
2.002869656287163,1.1601582807082784
2.0101748103698114,1.159010048660065
2.01747996445246,1.1575978391075465
2.0247851185351085,1.1558901460263056
2.032090272617757,1.1538583737318517
2.0393954267004055,1.1514770315021121
2.046700580783054,1.148723887267841
2.0540057348657026,1.1455800785873005
2.061310888948351,1.142030179805374
2.068616043031,1.1380622249955994
2.0759211971136486,1.1336676869838187
2.083226351196297,1.1288414134415414
2.0905315052789457,1.123581521703583
2.0978366593615942,1.1178892545962131
2.105141813444243,1.11176880014814
2.1124469675268913,1.1052270785871496
2.11975212160954,1.0982735004914819
2.1270572756921884,1.0909197003595654
2.134362429774837,1.0831792501787234
2.1416675838574855,1.075067357808473
2.148972737940134,1.0666005551443363
2.156277892022783,1.057796381092555
2.1635830461054315,1.04867306436525
2.17088820018808,1.0392492110014107
2.1781933542707286,1.029543501335343
2.185498508353377,1.0195744008755838
2.1928036624360256,1.0093598892302524
2.200108816518674,0.9989172108264446
2.2074139706013227,0.9882626507299214
2.2147191246839713,0.9774113383859191
2.22202427876662,0.9663770815819307
2.2293294328492683,0.955172232388535
2.236634586931917,0.9438075862749192
2.2439397410145654,0.9322923150314057
2.251244895097214,0.9206339335718933
2.2585500491798625,0.9088383001438554
2.265855203262511,0.8969096489512237
2.2731603573451595,0.8848506537040547
2.280465511427808,0.8726625201556184
2.2877706655104566,0.8603451052787207
2.295075819593105,0.8478970603740028
2.3023809736757537,0.8353159950978467
2.309686127758402,0.8225986591496296
2.3169912818410507,0.8097411381694478
2.3242964359236993,0.7967390602690994
2.331601590006348,0.7835878095511103
2.3389067440889963,0.7702827429618375
2.346211898171645,0.75681940687332
2.3535170522542934,0.7431937498916611
2.360822206336942,0.729402328543933
2.3681273604195905,0.7154425026964211
2.375432514502239,0.7013126177998776
2.3827376685848876,0.6870121713368884
2.390042822667536,0.6725419611568944
2.3973479767501846,0.6579042137199574
2.404653130832833,0.6431026906248765
2.411958284915482,0.6281427721647413
2.4192634389981307,0.6130315170273447
2.426568593080779,0.5977776976330786
2.4338737471634277,0.5823918109734718
2.4411789012460763,0.5668860651737737
2.448484055328725,0.5512743423481219
2.4557892094113734,0.5355721386410829
