Tasa_Simulado,Density
1.0000398106099844,100.55926994559843
1.0075765180470735,108.3032576734625
1.0151132254841626,115.89898288864902
1.0226499329212517,123.26152253570687
1.0301866403583408,130.31083138922233
1.03772334779543,136.97393713109895
1.0452600552325189,143.18681538927152
1.052796762669608,148.8958669049762
1.060333470106697,154.0589445073662
1.0678701775437862,158.645905411658
1.0754068849808753,162.6386923100663
1.0829435924179645,166.0309726902039
1.0904802998550536,168.82738798562286
1.0980170072921427,171.04248117387826
1.1055537147292318,172.6993824620275
1.113090422166321,173.82833747986595
1.12062712960341,174.4651612226293
1.1281638370404992,174.64969459642126
1.1357005444775883,174.42432991964068
1.1432372519146772,173.832658430615
1.1507739593517663,172.91827812174523
1.1583106667888554,171.72378537402852
1.1658473742259445,170.289960037217
1.1733840816630337,168.65514166929026
1.1809207891001228,166.85478519439462
1.1884574965372119,164.92117753334045
1.195994203974301,162.883292791675
1.2035309114113901,160.76676210492633
1.2110676188484792,158.59393480972196
1.2186043262855684,156.3840096973626
1.2261410337226573,154.15321813901548
1.2336777411597466,151.91504429861524
1.2412144485968355,149.68047099247684
1.2487511560339246,147.45824264217495
1.2562878634710137,145.2551389537435
1.2638245709081029,143.0762543264539
1.271361278345192,140.92527855644585
1.278897985782281,138.8047742686203
1.2864346932193702,136.71644588186717
1.2939714006564593,134.66139404028925
1.3015081080935484,132.6403486041271
1.3090448155306376,130.653872760699
1.3165815229677267,128.70253082495418
1.3241182304048156,126.78701302655291
1.331654937841905,124.90821211698507
1.3391916452789938,123.06724896781061
1.346728352716083,121.26544735464563
1.354265060153172,119.50426161357912
1.3618017675902612,117.78516451263995
1.3693384750273503,116.10950613653763
1.3768751824644394,114.47835745158677
1.3844118899015285,112.89235413463396
1.3919485973386176,111.35155691784406
1.3994853047757068,109.85534393316654
1.4070220122127957,108.40234829114982
1.414558719649885,106.99045051327153
1.422095427086974,105.61683072814205
1.429632134524063,104.2780801503815
1.4371688419611521,102.97036579516386
1.4447055493982413,101.68963719417566
1.4522422568353304,100.4318596055601
1.4597789642724195,99.19325530774275
1.4673156717095086,97.9705333581537
1.4748523791465977,96.76108883348842
1.4823890865836868,95.56315500746472
1.489925794020776,94.37589593526288
1.497462501457865,93.19943210788287
1.504999208894954,92.03479770115621
1.5125359163320433,90.8838338965981
1.5200726237691322,89.74902821681376
1.5276093312062216,88.63331427878654
1.5351460386433105,87.53984941742843
1.5426827460803996,86.47178901226115
1.5502194535174887,85.43207597504502
1.5577561609545778,84.42326181029799
1.565292868391667,83.4473721853675
1.572829575828756,82.50582540952531
1.5803662832658452,81.59940707627135
1.587902990702934,80.72829886343442
1.5954396981400234,79.89215459892087
1.6029764055771123,79.0902126232395
1.6105131130142016,78.3214305633565
1.6180498204512905,77.58462711191761
1.6255865278883797,76.87861538585456
1.6331232353254688,76.20231388636034
1.6406599427625579,75.55482383419202
1.648196650199647,74.93546543093504
1.6557333576367361,74.34377002891496
1.6632700650738252,73.77942985358571
1.6708067725109141,73.24221136715751
1.6783434799480035,72.73184216726145
1.6858801873850924,72.24788411666628
1.6934168948221817,71.78960693247272
1.7009536022592706,71.35587658092156
1.70849030969636,70.94507152012052
1.7160270171334489,70.55503724040614
1.723563724570538,70.18308593127377
1.731100432007627,69.8260438171835
1.7386371394447162,69.48034417943941
1.7461738468818053,69.14215976561242
1.7537105543188944,68.80756460327362
1.7612472617559836,68.47271253228477
1.7687839691930725,68.1340182942678
1.7763206766301618,67.78832688318656
1.7838573840672507,67.43305804169952
1.79139409150434,67.0663151253374
1.798930798941429,66.6869507802819
1.806467506378518,66.29458564153299
1.8140042138156072,65.88958016981397
1.8215409212526963,65.47296342644314
1.8290776286897854,65.04632570081526
1.8366143361268745,64.61168420024303
1.8441510435639636,64.17133233468172
1.8516877510010525,63.72768344007872
1.8592244584381419,63.28311915364905
1.8667611658752308,62.83985124581173
1.8742978733123201,62.39980375793851
1.881834580749409,61.9645200594988
1.8893712881864984,61.53509719091157
1.8969079956235873,61.11214783679102
1.9044447030606764,60.69578865778007
1.9119814104977655,60.28565260148823
1.9195181179348546,59.880922234710496
1.9270548253719437,59.480381031273694
1.9345915328090328,59.08247978890929
1.942128240246122,58.68541576864709
1.9496649476832109,58.287222571686364
1.9572016551203002,57.88586902719319
1.964738362557389,57.4793653381026
1.9722750699944784,57.0658743615215
1.9798117774315673,56.643825200148754
1.9873484848686567,56.212025339099604
1.9948851923057456,55.76976652847418
2.002421899742835,55.31691867631693
2.009958607179924,54.854005382002484
2.0174953146170127,54.38225459036983
2.025032022054102,53.90361831744535
2.0325687294911914,53.420756552605205
2.0401054369282803,52.93698225670878
2.047642144365369,52.45616673986063
2.0551788518024585,51.98260742652085
2.0627155592395474,51.52086285278251
2.0702522666766363,51.075562415629676
2.0777889741137257,50.65120063653406
2.085325681550815,50.251927278925045
2.092862388987904,49.88134540297306
2.100399096424993,49.54232926805316
2.107935803862082,49.23687291201263
2.1154725112991715,48.965978345164615
2.1230092187362604,48.72958976976949
2.1305459261733493,48.526577300428386
2.1380826336104386,48.35477057202017
2.145619341047528,48.211039632912005
2.1531560484846164,48.09141785816032
2.1606927559217057,47.99125945816787
2.168229463358795,47.905422619036194
2.175766170795884,47.828468441065816
2.183302878232973,47.75486562680322
2.190839585670062,47.67919124061179
2.1983762931071515,47.59631870894973
2.2059130005442404,47.5015854228894
2.2134497079813293,47.39093370544842
2.2209864154184187,47.26102039047723
2.228523122855508,47.10929172468005
2.236059830292597,46.93402167829823
2.243596537729686,46.7343129950096
2.251133245166775,46.510061421291276
2.258669952603864,46.26188454901668
2.266206660040953,45.991017618447565
2.2737433674780423,45.699179504694015
2.2812800749151316,45.3884129881627
2.2888167823522205,45.06090431474831
2.2963534897893094,44.71878799091458
2.3038901972263988,44.3639437146016
2.311426904663488,43.99779327167316
2.318963612100577,43.62110606206015
2.326500319537666,43.23382257274477
2.3340370269747552,42.83490548624098
2.341573734411844,42.422228098770994
2.349110441848933,41.99250922330111
2.3566471492860224,41.54130268726069
2.3641838567231117,41.06304784996541
2.3717205641602006,40.55118524701638
2.3792572715972895,39.99833855425021
2.386793979034379,39.39656064484972
2.394330686471468,38.73763774247071
2.401867393908557,38.01344176092958
2.409404101345646,37.216317126496634
2.4169408087827353,36.33948499528651
2.424477516219824,35.377445110438366
2.432014223656913,34.32635388084464
2.4395509310940025,33.18435684810519
2.447087638531092,31.951854707757946
2.4546243459681807,30.631684528600854
2.4621610534052696,29.229201712702345
2.469697760842359,27.752253372390935
2.4772344682794483,26.211039860070375
2.484771175716537,24.61786776005712
2.492307883153626,22.98680425648957
2.4998445905907154,21.333248918069547
